Wavelength,Flux,FluxErr
1.192768586811506975e+04,4.938712494564078622e-14,3.579566312463238765e-16
1.194760835077495176e+04,5.876035516541494266e-14,3.288559511811435092e-16
1.196753083343483377e+04,7.096301861958840136e-14,5.422964638685934063e-16
1.198745331609471577e+04,9.244824436512382869e-14,7.230054803110816908e-16
1.200737579875459778e+04,1.297806005815547937e-13,8.830742416422801120e-16
1.202729828141448161e+04,1.820510067970378207e-13,1.064127245866956854e-15
1.204722076407436180e+04,2.279181464823197763e-13,9.534894356716568247e-16
1.206714324673424562e+04,2.674822100732719057e-13,1.245002510357691482e-15
1.208706572939412581e+04,3.344930249935415903e-13,2.105692330281588712e-15
1.210698821205400964e+04,4.649975776936963491e-13,3.539891191482074202e-15
1.212691069471389164e+04,6.752958834262078910e-13,4.466880445883954577e-15
1.214683317737377365e+04,9.247922332601280685e-13,4.140839283017804534e-15
1.216675566003365566e+04,1.112473459587496037e-12,3.164808931971568547e-15
1.218667814269353767e+04,1.242265701443871081e-12,2.888648083574296479e-15
1.220660062535341967e+04,1.383997439649309768e-12,4.028373767812220233e-15
1.222652310801330168e+04,1.610631985121088649e-12,4.460297921355384421e-15
1.224644559067318369e+04,1.841669476133768025e-12,4.098961391024169826e-15
1.226636807333306569e+04,1.992998342923258567e-12,2.018633266321553855e-15
1.228629055599294952e+04,2.058590809877150915e-12,9.457802965212278359e-16
1.230621303865282971e+04,2.096430659394970536e-12,1.098010909867908892e-15
1.232613552131271354e+04,2.126664397314897680e-12,1.112596167464884521e-15
1.234605800397259372e+04,2.122145513502502951e-12,8.606731199653371276e-16
1.236598048663247755e+04,2.085771352527759221e-12,1.224560496242558510e-15
1.238590296929235956e+04,2.156143999027682740e-12,7.306903001902551974e-16
1.240582545195224156e+04,2.161851745041789261e-12,9.616069284971245438e-16
1.242574793461212357e+04,2.192702115266072727e-12,6.196107352646627255e-16
1.244567041727200558e+04,2.182940505966547737e-12,7.604582696943544138e-16
1.246559289993188941e+04,2.192949052651374496e-12,7.853793225822098355e-16
1.248551538259176959e+04,2.187645700091122967e-12,7.996361251465007595e-16
1.250543786525165342e+04,2.220865491605785921e-12,8.781351813735281103e-16
1.252536034791153361e+04,2.273197609091071043e-12,1.083657795958798647e-15
1.254528283057141743e+04,2.285485593093766954e-12,1.075908747978579027e-15
1.256520531323129944e+04,2.291901986688213403e-12,7.093916670928405583e-16
1.258512779589118145e+04,2.295369183625280910e-12,1.158996802427672383e-15
1.260505027855106346e+04,2.321512929439702048e-12,9.249111323284829714e-16
1.262497276121094546e+04,2.326119723051238037e-12,8.996980772288227105e-16
1.264489524387082929e+04,2.286986706087359701e-12,1.101723651955826211e-15
1.266481772653070948e+04,2.337598648408166120e-12,5.929176710652122949e-16
1.268474020919059330e+04,2.351840360442944403e-12,7.225237998880758827e-16
1.270466269185047349e+04,2.352458860546503936e-12,1.114034725721133072e-15
1.272458517451035732e+04,2.349306348903136017e-12,1.147510408207749349e-15
1.274450765717023751e+04,2.387768105200827971e-12,1.019938542487033720e-15
1.276443013983012133e+04,2.376755228241332406e-12,4.794066270641361566e-16
1.278435262249000152e+04,2.371338359391975209e-12,7.750049371281567745e-16
1.280427510514988535e+04,2.380033040677237128e-12,8.680482785794752796e-16
1.282419758780976736e+04,2.371142959457102244e-12,8.213472745233394976e-16
1.284412007046964936e+04,2.360226923888688676e-12,8.312403870992573813e-16
1.286404255312953137e+04,2.369595115135655447e-12,7.782070412871611844e-16
1.288396503578941338e+04,2.353553776221894764e-12,7.337742691310473389e-16
1.290388751844929720e+04,2.336650976961510897e-12,5.215870447568598563e-16
1.292381000110917739e+04,2.328133555960744805e-12,7.841576761657947489e-16
1.294373248376906122e+04,2.312332875801852797e-12,9.421912311945444661e-16
1.296365496642894141e+04,2.329686961120576370e-12,9.212940692460610644e-16
1.298357744908882523e+04,2.281394815445054783e-12,7.692752147462749421e-16
1.300349993174870542e+04,2.276977591290367828e-12,9.172985974135639112e-16
1.302342241440858925e+04,2.299650972086845939e-12,1.024955337422906443e-15
1.304334489706847125e+04,2.317092419165608334e-12,1.114910696379957813e-15
1.306326737972835326e+04,2.334912611100720685e-12,6.368793276859939065e-16
1.308318986238823527e+04,2.330694837115032650e-12,6.564716044710947982e-16
1.310311234504811728e+04,2.313398579997837179e-12,7.134381071261676505e-16
1.312303482770800110e+04,2.301134992963054944e-12,5.960894902439991962e-16
1.314295731036788129e+04,2.290730992064942056e-12,7.661161755446077876e-16
1.316287979302776512e+04,2.305327224536474567e-12,8.215792827750778306e-16
1.318280227568764712e+04,2.305729315222614214e-12,8.705229097447240804e-16
1.320272475834752913e+04,2.268809274809596077e-12,7.856461536797155096e-16
1.322264724100741114e+04,2.273505867101928570e-12,6.141743174797728081e-16
1.324256972366729315e+04,2.282160806833071760e-12,7.844067178608255297e-16
1.326249220632717515e+04,2.280537544999392792e-12,7.493677462997583859e-16
1.328241468898705716e+04,2.259508844530124891e-12,6.923184494785888356e-16
1.330233717164694099e+04,2.269945169197492467e-12,6.818649512233653897e-16
1.332225965430682118e+04,2.254691155430589977e-12,5.310338038694281948e-16
1.334218213696670500e+04,2.240183041766017593e-12,8.726311300837192792e-16
1.336210461962658519e+04,2.224533920561973114e-12,5.952663848957324749e-16
1.338202710228646902e+04,2.205751677339826295e-12,1.216223265875782406e-15
1.340194958494635102e+04,2.166336809289530707e-12,1.173651442166031581e-15
1.342187206760623303e+04,2.161113138173121112e-12,8.680538105990722904e-16
1.344179455026611504e+04,2.125655528395419595e-12,8.706252410403783364e-16
1.346171703292599705e+04,2.119018416952409390e-12,7.974946368409395707e-16
1.348163951558587905e+04,2.118345329302082641e-12,6.881648241085626663e-16
1.350156199824576106e+04,2.115077574836953456e-12,8.218842420752913708e-16
1.352148448090564307e+04,2.112416433016748493e-12,7.587732550361296395e-16
1.354140696356552507e+04,2.108854911555252561e-12,6.591200080715108406e-16
1.356132944622540708e+04,2.061970203232187304e-12,1.402922830370843324e-15
1.358125192888528909e+04,2.076895083949310820e-12,5.973140700311789323e-16
1.360117441154517292e+04,2.065196253708169888e-12,6.907488995612122276e-16
1.362109689420505310e+04,2.083251907613553242e-12,5.406371900544681418e-16
1.364101937686493693e+04,2.052299032295538215e-12,8.756543606328690290e-16
1.366094185952481894e+04,2.077960127030709254e-12,7.335941436075074612e-16
1.368086434218470094e+04,2.076976031137567487e-12,1.133757788547455141e-15
1.370078682484458295e+04,2.085763293174222793e-12,5.837662656272805965e-16
1.372070930750446496e+04,2.060433921787732726e-12,6.574447533703499627e-16
1.374063179016434879e+04,2.063168751848129564e-12,7.582611671360539984e-16
1.376055427282422897e+04,2.060130848922997224e-12,7.050201257794176910e-16
1.378047675548411280e+04,2.043972154743155670e-12,6.193625293537831999e-16
1.380039923814399299e+04,2.029940303257619312e-12,7.200702563347556467e-16
1.382032172080387681e+04,2.013784964371903632e-12,7.580103081887719187e-16
1.384024420346375882e+04,2.004855160293147593e-12,9.317928157741577082e-16
1.386016668612364083e+04,1.970729735635135319e-12,7.575418114237408445e-16
1.388008916878352284e+04,1.939249795632169839e-12,7.995419642802139375e-16
1.390001165144340484e+04,1.954375039319919286e-12,6.608771766465979644e-16
1.391993413410328867e+04,1.948255400246337245e-12,7.111242834262957832e-16
1.393985661676316886e+04,1.910153112601654432e-12,9.004610494259544496e-16
1.395977909942305268e+04,1.909451639873074391e-12,6.908217557872087657e-16
1.397970158208293287e+04,1.937906548002987483e-12,6.862121282808759304e-16
1.399962406474281670e+04,1.962290906952372094e-12,8.962003855547778484e-16
1.401954654740269689e+04,1.927213350028971253e-12,6.104995930973781681e-16
1.403946903006258071e+04,1.912806268844250397e-12,7.008375793709653778e-16
1.405939151272246090e+04,1.900605991134991103e-12,8.268313197157917827e-16
1.407931399538234473e+04,1.873849104793505614e-12,4.044705881009149779e-16
1.409923647804222674e+04,1.858894216977190571e-12,6.202919370373094269e-16
1.411915896070210874e+04,1.848741242177739043e-12,4.593335558129480454e-16
1.413908144336199075e+04,1.827664597296703621e-12,8.806107038585020952e-16
1.415900392602187276e+04,1.804260587184643616e-12,7.588244575282682967e-16
1.417892640868175658e+04,1.777059684286000155e-12,8.903493895407814596e-16
1.419884889134163677e+04,1.759174209917746776e-12,6.625188614329476646e-16
1.421877137400152060e+04,1.734515031449592385e-12,5.182927220593279901e-16
1.423869385666140079e+04,1.715076122913572395e-12,8.282644374454010262e-16
1.425861633932128461e+04,1.685277843978742734e-12,6.831663550067029327e-16
1.427853882198116480e+04,1.663124129942364623e-12,7.244245527704522980e-16
1.429846130464104863e+04,1.661190097629466740e-12,7.342918702606355063e-16
1.431838378730092882e+04,1.643613520460076275e-12,5.128473692347085047e-16
1.433830626996081264e+04,1.639321510478098145e-12,4.997410036526456185e-16
1.435822875262069465e+04,1.631301080955269191e-12,6.593440957994017962e-16
1.437815123528057666e+04,1.619695857442356100e-12,5.498504402200511427e-16
1.439807371794046048e+04,1.612053082502490129e-12,5.542840639838228727e-16
1.441799620060034067e+04,1.593461182695479776e-12,5.024486282170228534e-16
1.443791868326022450e+04,1.559984099871477950e-12,6.219808698807359089e-16
1.445784116592010650e+04,1.562404255196456364e-12,6.938321781111376212e-16
1.447776364857998851e+04,1.556166016524212013e-12,5.935342479509534479e-16
1.449768613123987052e+04,1.545976689271599686e-12,7.001879081896990447e-16
1.451760861389975253e+04,1.498210559441726732e-12,6.352977405915761621e-16
1.453753109655963453e+04,1.479060003799811624e-12,7.049456941966468648e-16
1.455745357921951654e+04,1.473655916084334008e-12,6.322186650584973789e-16
1.457737606187939855e+04,1.463071933988696103e-12,1.158306040508486531e-15
1.459729854453928056e+04,1.427903176161934123e-12,1.499426241327710961e-15
1.461722102719916438e+04,1.363889015681597950e-12,2.228346690165350980e-15
1.463714350985904457e+04,1.244943521288964607e-12,2.922149320819790256e-15
1.465706599251892840e+04,1.075381256690251256e-12,3.473632418408081022e-15
1.467698847517881040e+04,8.928663853359139113e-13,3.286239667695032833e-15
1.469691095783869241e+04,7.179720414552254751e-13,2.849747414549182443e-15
1.471683344049857442e+04,5.616365383588660511e-13,2.413368483545089519e-15
1.473675592315845643e+04,4.362224280269259056e-13,1.802339694808087173e-15
1.475667840581833843e+04,3.429182844588850060e-13,1.415272103845073749e-15
1.477660088847822044e+04,2.671239126320636091e-13,1.074737168037840734e-15
1.479652337113810245e+04,2.114492008684039998e-13,8.028517292114696316e-16
1.481644585379798446e+04,1.695018482107836139e-13,6.058351702157567919e-16
1.483636833645786646e+04,1.368033503093894021e-13,5.269090195066102953e-16
1.485629081911774847e+04,1.094620862185455184e-13,4.279704947295056995e-16
1.487621330177763230e+04,8.882822553572200041e-14,3.536201261853862198e-16
1.489613578443751248e+04,7.162910813367175113e-14,3.100907721512686391e-16
1.491605826709739631e+04,5.703655312704470902e-14,2.498388167476467876e-16
1.493598074975727832e+04,4.539015225341343168e-14,1.585216151942410386e-16
1.495590323241716032e+04,3.599452183518225592e-14,1.637514844003017791e-16
1.497582571507704233e+04,2.911919769028425888e-14,1.203416212218537417e-16
1.499574819773692434e+04,2.383620622470026435e-14,1.384830919505029811e-16
1.501567068039680635e+04,1.951611266636567623e-14,7.653042567711426447e-17
1.503559316305668835e+04,1.580781355046282325e-14,1.151175892897473831e-16
1.505551564571657218e+04,1.307929318787423502e-14,9.004983894604276537e-17
1.507543812837645237e+04,1.088885268593125240e-14,1.253219499415091214e-16
1.509536061103633619e+04,9.398253343874435325e-15,7.854692766322674784e-17
1.511528309369621638e+04,8.045120422700315829e-15,5.248788725190532389e-17
1.513520557635610021e+04,7.008367693778358513e-15,8.748427953975395723e-17
1.515512805901598040e+04,6.190242884908484697e-15,7.828053439063050417e-17
1.517505054167586422e+04,5.418060613690454822e-15,6.767286584730065787e-17
