Wavelength,Flux,FluxErr
1.192768586811506975e+04,5.041257230695564913e-14,3.070574653339716271e-16
1.194760835077495176e+04,5.975312818002839845e-14,2.931826589604233491e-16
1.196753083343483377e+04,7.262304071288766075e-14,4.883562293752748195e-16
1.198745331609471577e+04,9.606559436628780746e-14,8.003491575073732192e-16
1.200737579875459778e+04,1.353631393783727407e-13,1.006197636225705345e-15
1.202729828141448161e+04,1.877582541830971389e-13,1.105113473255096762e-15
1.204722076407436180e+04,2.322048341210977328e-13,9.475739360434572963e-16
1.206714324673424562e+04,2.731833618692818769e-13,1.221897802117392794e-15
1.208706572939412581e+04,3.451793847313282916e-13,2.008214341484902419e-15
1.210698821205400964e+04,4.859428131811156375e-13,3.410369347039080757e-15
1.212691069471389164e+04,7.048017867200209948e-13,4.672283342816839726e-15
1.214683317737377365e+04,9.518510051563482862e-13,4.338600571287784495e-15
1.216675566003365566e+04,1.130171749533547501e-12,2.842431055770230899e-15
1.218667814269353767e+04,1.258001833982718117e-12,3.094584595682018618e-15
1.220660062535341967e+04,1.406862690925253399e-12,3.862664619544523046e-15
1.222652310801330168e+04,1.641105350169872730e-12,4.486136550386645768e-15
1.224644559067318369e+04,1.867072493138668357e-12,3.609673650901417428e-15
1.226636807333306569e+04,2.006475518936118250e-12,2.185914028010823053e-15
1.228629055599294952e+04,2.065120318340124708e-12,9.054120778349632331e-16
1.230621303865282971e+04,2.101268378924072794e-12,8.731523478654469830e-16
1.232613552131271354e+04,2.130410351413194665e-12,1.220568318230018132e-15
1.234605800397259372e+04,2.127406039163940702e-12,9.835197046525163452e-16
1.236598048663247755e+04,2.090250681191253711e-12,1.230169425497777083e-15
1.238590296929235956e+04,2.158671265685739163e-12,9.763011507173219677e-16
1.240582545195224156e+04,2.166833883489535353e-12,7.825152503225250024e-16
1.242574793461212357e+04,2.195327253771507511e-12,5.638774022970685676e-16
1.244567041727200558e+04,2.185507263004250674e-12,9.658005001155128471e-16
1.246559289993188941e+04,2.193461801210489217e-12,6.355585841171991476e-16
1.248551538259176959e+04,2.191315760101932696e-12,9.411307270256258289e-16
1.250543786525165342e+04,2.227843209627303679e-12,9.939762364117639344e-16
1.252536034791153361e+04,2.279651484394888316e-12,1.371020343788536129e-15
1.254528283057141743e+04,2.289207867747021170e-12,8.642689090469326084e-16
1.256520531323129944e+04,2.293744518371842611e-12,7.619794224692546530e-16
1.258512779589118145e+04,2.300166370063495772e-12,6.972065786585404210e-16
1.260505027855106346e+04,2.325853059195309632e-12,8.534421870472131875e-16
1.262497276121094546e+04,2.327451613796746434e-12,9.760498862823272979e-16
1.264489524387082929e+04,2.288778926565144518e-12,1.093510498670765236e-15
1.266481772653070948e+04,2.342740911056635559e-12,6.921310662155345416e-16
1.268474020919059330e+04,2.355417306942346875e-12,1.013751468412819636e-15
1.270466269185047349e+04,2.357678420912526187e-12,1.118769058352032893e-15
1.272458517451035732e+04,2.353118073605135666e-12,9.536510941791807865e-16
1.274450765717023751e+04,2.389529542777781018e-12,7.727754134353912702e-16
1.276443013983012133e+04,2.378918745288264737e-12,1.069528584305899340e-15
1.278435262249000152e+04,2.374017671968704442e-12,9.027902350596990014e-16
1.280427510514988535e+04,2.382683818238203084e-12,6.469171160397675777e-16
1.282419758780976736e+04,2.372157284061414143e-12,9.360026068054645225e-16
1.284412007046964936e+04,2.362628099044909027e-12,7.813623523927515105e-16
1.286404255312953137e+04,2.370560486012929821e-12,7.054379936926624804e-16
1.288396503578941338e+04,2.353730028859484508e-12,8.274230143821639343e-16
1.290388751844929720e+04,2.336208775722745726e-12,7.932670664356767608e-16
1.292381000110917739e+04,2.328934131752243646e-12,6.362887071875467571e-16
1.294373248376906122e+04,2.315338479646234359e-12,8.095628066650722527e-16
1.296365496642894141e+04,2.332215238436048981e-12,8.131788567139553685e-16
1.298357744908882523e+04,2.281824486271871283e-12,6.569308630913409320e-16
1.300349993174870542e+04,2.279896816823493516e-12,7.270086531497519902e-16
1.302342241440858925e+04,2.304092729418609897e-12,1.036858302790651028e-15
1.304334489706847125e+04,2.320713350553523607e-12,8.420974512951878086e-16
1.306326737972835326e+04,2.337783954736513755e-12,1.017054661806540756e-15
1.308318986238823527e+04,2.332619193177475451e-12,8.181065051614427840e-16
1.310311234504811728e+04,2.314501643897538065e-12,7.253766697897604567e-16
1.312303482770800110e+04,2.300513174410525644e-12,7.850676988769194121e-16
1.314295731036788129e+04,2.292892265853606723e-12,8.665292758912404901e-16
1.316287979302776512e+04,2.308940685942541739e-12,8.668061821124432622e-16
1.318280227568764712e+04,2.307909949696702171e-12,1.000200505636969554e-15
1.320272475834752913e+04,2.269704416589688016e-12,7.063424865321898456e-16
1.322264724100741114e+04,2.276076083348881635e-12,5.475321093159777816e-16
1.324256972366729315e+04,2.284047629648508250e-12,5.176087080870328932e-16
1.326249220632717515e+04,2.282433543148988485e-12,6.303025381350275494e-16
1.328241468898705716e+04,2.260306774892319345e-12,7.428157622481789171e-16
1.330233717164694099e+04,2.269925953832480337e-12,7.121352274383761016e-16
1.332225965430682118e+04,2.254705931969667799e-12,7.047272356085088823e-16
1.334218213696670500e+04,2.239781221882931294e-12,8.661386707389300053e-16
1.336210461962658519e+04,2.225084735061972744e-12,6.249417629523497370e-16
1.338202710228646902e+04,2.205313676931072650e-12,9.024674841358029856e-16
1.340194958494635102e+04,2.165693213658567897e-12,1.226358647668552872e-15
1.342187206760623303e+04,2.159727399625235323e-12,6.439733589558157593e-16
1.344179455026611504e+04,2.126113310540254849e-12,8.185554056470387737e-16
1.346171703292599705e+04,2.120781936993898432e-12,4.718689608544219554e-16
1.348163951558587905e+04,2.120904607565038665e-12,7.171722186629660324e-16
1.350156199824576106e+04,2.116967303921629833e-12,8.279080906526797739e-16
1.352148448090564307e+04,2.113425003614361803e-12,7.458630060941428833e-16
1.354140696356552507e+04,2.109388473522278277e-12,7.934915669162619768e-16
1.356132944622540708e+04,2.063554380147909396e-12,1.286415989625848833e-15
1.358125192888528909e+04,2.077119598502278540e-12,6.251415697422291984e-16
1.360117441154517292e+04,2.065077810147183572e-12,6.852949323420469116e-16
1.362109689420505310e+04,2.084224254709933499e-12,8.202609456316555881e-16
1.364101937686493693e+04,2.054214414627810358e-12,1.212711387415076249e-15
1.366094185952481894e+04,2.079038757818388446e-12,9.170266535552056345e-16
1.368086434218470094e+04,2.077298819214869010e-12,5.639696072772402183e-16
1.370078682484458295e+04,2.086760020909168486e-12,6.485959899302708691e-16
1.372070930750446496e+04,2.060081632835253047e-12,5.364773402793553466e-16
1.374063179016434879e+04,2.063350389312326781e-12,5.818950710937840925e-16
1.376055427282422897e+04,2.061118590011136161e-12,9.374768918337469805e-16
1.378047675548411280e+04,2.043668143483871858e-12,9.129649373457266606e-16
1.380039923814399299e+04,2.029104183200448766e-12,6.377974220514676924e-16
1.382032172080387681e+04,2.014295370444933427e-12,6.189289271102947030e-16
1.384024420346375882e+04,2.004943599976816118e-12,6.272015840651144589e-16
1.386016668612364083e+04,1.969142716561461835e-12,8.166277070453950775e-16
1.388008916878352284e+04,1.939206569593983943e-12,6.861297402715237701e-16
1.390001165144340484e+04,1.956983521625502174e-12,7.750660425221573405e-16
1.391993413410328867e+04,1.946525837642896468e-12,6.249510745728567006e-16
1.393985661676316886e+04,1.907343959626154120e-12,9.715208326281282727e-16
1.395977909942305268e+04,1.913782173837431570e-12,6.448296067481680676e-16
1.397970158208293287e+04,1.943351662630379845e-12,5.934552753996359941e-16
1.399962406474281670e+04,1.962930367084965003e-12,6.141604641886693974e-16
1.401954654740269689e+04,1.927586879790291868e-12,8.652319716405257884e-16
1.403946903006258071e+04,1.912931278563146665e-12,7.535798785079764214e-16
1.405939151272246090e+04,1.900741438193482961e-12,9.764220941625107659e-16
1.407931399538234473e+04,1.874129524435671719e-12,7.706202510685837259e-16
1.409923647804222674e+04,1.858784694682983360e-12,5.068976597622599441e-16
1.411915896070210874e+04,1.848198903760621470e-12,5.522360300640006808e-16
1.413908144336199075e+04,1.826532201509940207e-12,6.378401449356733239e-16
1.415900392602187276e+04,1.802573043276572994e-12,5.161333248831379090e-16
1.417892640868175658e+04,1.775863895706053234e-12,6.499585285833377344e-16
1.419884889134163677e+04,1.758687898736247608e-12,6.793563144775495826e-16
1.421877137400152060e+04,1.733811145779934458e-12,5.074859523319960246e-16
1.423869385666140079e+04,1.712077906028469798e-12,7.519396967914374458e-16
1.425861633932128461e+04,1.684857752914742005e-12,6.001403750285075173e-16
1.427853882198116480e+04,1.664308438544234048e-12,5.390030940677491467e-16
1.429846130464104863e+04,1.659768943674841575e-12,6.206671686117464099e-16
1.431838378730092882e+04,1.643755730952924843e-12,6.471782513170735059e-16
1.433830626996081264e+04,1.641630295366364546e-12,7.082203153725047945e-16
1.435822875262069465e+04,1.631780939648287890e-12,6.808399671437591335e-16
1.437815123528057666e+04,1.619449514811086139e-12,7.643772624162661698e-16
1.439807371794046048e+04,1.610961937723927184e-12,7.585442064253986152e-16
1.441799620060034067e+04,1.591729516321912133e-12,7.627746699333893887e-16
1.443791868326022450e+04,1.558644503852635994e-12,6.929543689946536247e-16
1.445784116592010650e+04,1.563005602265443635e-12,6.873193186768621600e-16
1.447776364857998851e+04,1.556355449613839378e-12,7.361731794372261456e-16
1.449768613123987052e+04,1.543850908980858485e-12,5.635247029718747771e-16
1.451760861389975253e+04,1.496702895364365274e-12,7.392167186475376265e-16
1.453753109655963453e+04,1.478684744990790738e-12,6.599949006813307893e-16
1.455745357921951654e+04,1.473452035996185961e-12,8.487689971845253217e-16
1.457737606187939855e+04,1.461631930796927781e-12,7.496705932056953463e-16
1.459729854453928056e+04,1.424367733957451428e-12,1.186295966782805831e-15
1.461722102719916438e+04,1.354028944967306367e-12,1.989289921093650768e-15
1.463714350985904457e+04,1.228933255153780869e-12,2.660954921889280335e-15
1.465706599251892840e+04,1.055746395755931119e-12,3.103234381321352804e-15
1.467698847517881040e+04,8.724794198075849482e-13,3.136577582341111798e-15
1.469691095783869241e+04,6.997637862886659919e-13,2.595790690872866501e-15
1.471683344049857442e+04,5.461293747658142422e-13,2.188227327044793878e-15
1.473675592315845643e+04,4.241555318028712619e-13,1.644130325387043456e-15
1.475667840581833843e+04,3.334626534931742250e-13,1.261913319238166478e-15
1.477660088847822044e+04,2.600610393425272426e-13,8.385192693936915653e-16
1.479652337113810245e+04,2.061972110100542515e-13,6.514158699322653426e-16
1.481644585379798446e+04,1.653324989513950601e-13,4.949639119262145718e-16
1.483636833645786646e+04,1.335952239017045060e-13,4.468286439649498576e-16
1.485629081911774847e+04,1.070032614762637005e-13,4.220928704838903830e-16
1.487621330177763230e+04,8.673874452295329032e-14,2.694930998688120872e-16
1.489613578443751248e+04,6.975541300254063370e-14,3.029106043277113536e-16
1.491605826709739631e+04,5.546271929881489487e-14,1.736014501745192158e-16
1.493598074975727832e+04,4.419701478519815931e-14,1.392968580704225243e-16
1.495590323241716032e+04,3.519408584363602625e-14,1.411637636944128403e-16
1.497582571507704233e+04,2.836747513157647393e-14,1.324824083885281267e-16
1.499574819773692434e+04,2.325327531811734786e-14,1.394425201025899000e-16
1.501567068039680635e+04,1.899422432473659820e-14,1.110701811405951147e-16
1.503559316305668835e+04,1.542707732624964590e-14,9.553072835212070979e-17
1.505551564571657218e+04,1.281488109311857018e-14,7.721808478747841941e-17
1.507543812837645237e+04,1.071190213396890988e-14,9.775721995684609639e-17
1.509536061103633619e+04,9.214351262904442380e-15,7.875758062456027277e-17
1.511528309369621638e+04,7.902534566373670525e-15,1.023216082286610665e-16
1.513520557635610021e+04,6.898086946640434474e-15,7.717495477282341740e-17
1.515512805901598040e+04,6.023000611511019815e-15,6.696853185113223642e-17
1.517505054167586422e+04,5.325380139294110442e-15,7.739159308467054173e-17
