Wavelength,Flux,FluxErr
1.192768586811506975e+04,5.244856868295613836e-14,2.945011354973800999e-16
1.194760835077495176e+04,6.192636066366526531e-14,3.235200990727845878e-16
1.196753083343483377e+04,7.696755221966465335e-14,6.529675123355858984e-16
1.198745331609471577e+04,1.037117650742335261e-13,8.789206608101624877e-16
1.200737579875459778e+04,1.469000383797204468e-13,1.127943537357817778e-15
1.202729828141448161e+04,1.991670704521088403e-13,1.163685281908490640e-15
1.204722076407436180e+04,2.409852439799314685e-13,1.164616053158190731e-15
1.206714324673424562e+04,2.857505248928875518e-13,1.504222902595663669e-15
1.208706572939412581e+04,3.706081491516899467e-13,2.742858773163815001e-15
1.210698821205400964e+04,5.311866958870426112e-13,4.293558347025790662e-15
1.212691069471389164e+04,7.633489371815955098e-13,5.130375415083161314e-15
1.214683317737377365e+04,1.000417649028237818e-12,4.256476011436998513e-15
1.216675566003365566e+04,1.160240555180708136e-12,3.168458472817655842e-15
1.218667814269353767e+04,1.286574942323806799e-12,3.404753644423739565e-15
1.220660062535341967e+04,1.454141647864325525e-12,4.631223636886837431e-15
1.222652310801330168e+04,1.699084055217537015e-12,4.671097686442055225e-15
1.224644559067318369e+04,1.907700740154791809e-12,3.803905234688900068e-15
1.226636807333306569e+04,2.021523149640694486e-12,1.814050916217840898e-15
1.228629055599294952e+04,2.070019805680683844e-12,1.191502058145504919e-15
1.230621303865282971e+04,2.103452457772723885e-12,1.171045419257190629e-15
1.232613552131271354e+04,2.128337508511238933e-12,1.011875414325170934e-15
1.234605800397259372e+04,2.123373916287868744e-12,9.751718029392366659e-16
1.236598048663247755e+04,2.089519890461849129e-12,1.387948875441314830e-15
1.238590296929235956e+04,2.152883423353225945e-12,8.542017443354073056e-16
1.240582545195224156e+04,2.167090652255799664e-12,7.520676046762650416e-16
1.242574793461212357e+04,2.190158519681855092e-12,7.212167025294371482e-16
1.244567041727200558e+04,2.180553712898754527e-12,8.863440635420021099e-16
1.246559289993188941e+04,2.184414258515590155e-12,6.797612676427778031e-16
1.248551538259176959e+04,2.190509440095083486e-12,9.561200723297819905e-16
1.250543786525165342e+04,2.232804108982618705e-12,8.931666180670043207e-16
1.252536034791153361e+04,2.285000233250982203e-12,9.569213258287866692e-16
1.254528283057141743e+04,2.284929234933936705e-12,7.330592461327391412e-16
1.256520531323129944e+04,2.285227635450921956e-12,7.908876117142982410e-16
1.258512779589118145e+04,2.299874713938609123e-12,7.765431768488440470e-16
1.260505027855106346e+04,2.325304150002674776e-12,1.133876149547029264e-15
1.262497276121094546e+04,2.317412816881861589e-12,9.351603247869031646e-16
1.264489524387082929e+04,2.284237136627464941e-12,1.116019910899369230e-15
1.266481772653070948e+04,2.342703006109624888e-12,7.483894538339583856e-16
1.268474020919059330e+04,2.352926655331925284e-12,1.004958025892427717e-15
1.270466269185047349e+04,2.361181015677887378e-12,8.335113486174279441e-16
1.272458517451035732e+04,2.352389701619328091e-12,8.505965947040265656e-16
1.274450765717023751e+04,2.382878974792812516e-12,1.090847903291397831e-15
1.276443013983012133e+04,2.370129800221403297e-12,9.904482087143757106e-16
1.278435262249000152e+04,2.369091861641505492e-12,8.728780243553201457e-16
1.280427510514988535e+04,2.376674951754525042e-12,7.506973382486927358e-16
1.282419758780976736e+04,2.361622702739882835e-12,7.517948821074759709e-16
1.284412007046964936e+04,2.356746228469463547e-12,7.402951586659943040e-16
1.286404255312953137e+04,2.360746342419192534e-12,8.125661557724135598e-16
1.288396503578941338e+04,2.342493322746924750e-12,9.150239642894559260e-16
1.290388751844929720e+04,2.325943673063099832e-12,7.105112447169901895e-16
1.292381000110917739e+04,2.319922004178487130e-12,7.644616630416893836e-16
1.294373248376906122e+04,2.310355812140528903e-12,7.141671370937920013e-16
1.296365496642894141e+04,2.324711652080988350e-12,7.846518370522964931e-16
1.298357744908882523e+04,2.272819133277396363e-12,9.136663410282507876e-16
1.300349993174870542e+04,2.276128327386994607e-12,1.219041503993243593e-15
1.302342241440858925e+04,2.303146897023414157e-12,8.475274888608580775e-16
1.304334489706847125e+04,2.317942425522249752e-12,7.365596190124421422e-16
1.306326737972835326e+04,2.333292915855593573e-12,9.161129021716949060e-16
1.308318986238823527e+04,2.324560223895160616e-12,6.059800308450158034e-16
1.310311234504811728e+04,2.305196352819376279e-12,6.700937307780566931e-16
1.312303482770800110e+04,2.287995576343459066e-12,7.124158031726098403e-16
1.314295731036788129e+04,2.289298085867165722e-12,8.282175882852342321e-16
1.316287979302776512e+04,2.305409846478451695e-12,9.831770011541209395e-16
1.318280227568764712e+04,2.298126853368368536e-12,7.614911903243257222e-16
1.320272475834752913e+04,2.259701033631517752e-12,8.933835133889473294e-16
1.322264724100741114e+04,2.273814374343630652e-12,7.792642784622282592e-16
1.324256972366729315e+04,2.277205503712157554e-12,8.208039827796234020e-16
1.326249220632717515e+04,2.275179617718145487e-12,8.329949002758224131e-16
1.328241468898705716e+04,2.249901156624530253e-12,6.165451993096683212e-16
1.330233717164694099e+04,2.258861499622093558e-12,5.825595226632078578e-16
1.332225965430682118e+04,2.242198479123930963e-12,9.259976439473957666e-16
1.334218213696670500e+04,2.229710073833258758e-12,8.517174253077330944e-16
1.336210461962658519e+04,2.212602168888127775e-12,8.403144628668226151e-16
1.338202710228646902e+04,2.193438328052391209e-12,9.069389201324457016e-16
1.340194958494635102e+04,2.150928045120366741e-12,1.360000790375248577e-15
1.342187206760623303e+04,2.146753129074506816e-12,6.076519921344472400e-16
1.344179455026611504e+04,2.119789142698393239e-12,8.148337306749712699e-16
1.346171703292599705e+04,2.116368131356066658e-12,4.798093234211573404e-16
1.348163951558587905e+04,2.115134872167013518e-12,5.594267959167473728e-16
1.350156199824576106e+04,2.112073429470249895e-12,7.546220852428309529e-16
1.352148448090564307e+04,2.106166356843770093e-12,7.622775349082729140e-16
1.354140696356552507e+04,2.097962332537563181e-12,6.227765835440606213e-16
1.356132944622540708e+04,2.056399565065801323e-12,9.443477034636804407e-16
1.358125192888528909e+04,2.066564578873747642e-12,7.397043692919867584e-16
1.360117441154517292e+04,2.056238159446281702e-12,6.980131914754884880e-16
1.362109689420505310e+04,2.077602266005274020e-12,7.491139778374085613e-16
1.364101937686493693e+04,2.050200137752492810e-12,8.261013370110133354e-16
1.366094185952481894e+04,2.068142440089032004e-12,8.065426897918811340e-16
1.368086434218470094e+04,2.067137664558545057e-12,8.762442044020208011e-16
1.370078682484458295e+04,2.077070188785417529e-12,6.200518384371990515e-16
1.372070930750446496e+04,2.048069958595630925e-12,6.652547087941008279e-16
1.374063179016434879e+04,2.053358830916677696e-12,7.179824700315357328e-16
1.376055427282422897e+04,2.050469669994743907e-12,9.159959466318100929e-16
1.378047675548411280e+04,2.030304570155034483e-12,6.625889797046677047e-16
1.380039923814399299e+04,2.017462427373118528e-12,8.355930444606330992e-16
1.382032172080387681e+04,2.002975344044926190e-12,8.338223975053965685e-16
1.384024420346375882e+04,1.991519617273800839e-12,7.562395310888279503e-16
1.386016668612364083e+04,1.953509490468573434e-12,7.818561858623512312e-16
1.388008916878352284e+04,1.931739189936075926e-12,5.958864700699424294e-16
1.390001165144340484e+04,1.950570530936686705e-12,6.155490951423975569e-16
1.391993413410328867e+04,1.928270336380006755e-12,8.728068035603159898e-16
1.393985661676316886e+04,1.892882534445005670e-12,6.589132542967149208e-16
1.395977909942305268e+04,1.917912165811966438e-12,7.802051079166030688e-16
1.397970158208293287e+04,1.942709322499817844e-12,7.730258067002814362e-16
1.399962406474281670e+04,1.952923352997783358e-12,7.977730203153313626e-16
1.401954654740269689e+04,1.917209256905082860e-12,6.326488668145518984e-16
1.403946903006258071e+04,1.903887542088307518e-12,5.367468250305839151e-16
1.405939151272246090e+04,1.890802514547535172e-12,7.386315163873848173e-16
1.407931399538234473e+04,1.862986678327199537e-12,5.727135934973031365e-16
1.409923647804222674e+04,1.849366030760770485e-12,9.081826729430868112e-16
1.411915896070210874e+04,1.837786359284783601e-12,7.793666975519783252e-16
1.413908144336199075e+04,1.812770230774459895e-12,7.677991964249162182e-16
1.415900392602187276e+04,1.788121826651480130e-12,7.856075541563457100e-16
1.417892640868175658e+04,1.764860855299930463e-12,6.349353751402349783e-16
1.419884889134163677e+04,1.746371397049871210e-12,5.503148904372005874e-16
1.421877137400152060e+04,1.721651331900090453e-12,8.495951017969564471e-16
1.423869385666140079e+04,1.696124047181338403e-12,6.190640147525011154e-16
1.425861633932128461e+04,1.676074759230516192e-12,7.928099547640125233e-16
1.427853882198116480e+04,1.661222868580949308e-12,6.696526346707875025e-16
1.429846130464104863e+04,1.648075539806614777e-12,4.526435200630240228e-16
1.431838378730092882e+04,1.635472448201284750e-12,5.314721299037770612e-16
1.433830626996081264e+04,1.639174141155426982e-12,6.095353739857191180e-16
1.435822875262069465e+04,1.623379470239715318e-12,5.231035364721671082e-16
1.437815123528057666e+04,1.609509738257862357e-12,6.745593884243482309e-16
1.439807371794046048e+04,1.597533960667471043e-12,6.663794350332971249e-16
1.441799620060034067e+04,1.578344296716929616e-12,6.415915461094365793e-16
1.443791868326022450e+04,1.548120272467265687e-12,5.450660415662202413e-16
1.445784116592010650e+04,1.557397012373396029e-12,5.591955542525815144e-16
1.447776364857998851e+04,1.545141913572449268e-12,6.916692150821963473e-16
1.449768613123987052e+04,1.522410881160492309e-12,8.648287019377453361e-16
1.451760861389975253e+04,1.474185696982238879e-12,8.102895332113632927e-16
1.453753109655963453e+04,1.455087056295167706e-12,7.226819255257892921e-16
1.455745357921951654e+04,1.443713946111314255e-12,7.778425937315933707e-16
1.457737606187939855e+04,1.423023110521210409e-12,1.007109412211191334e-15
1.459729854453928056e+04,1.376590706915003430e-12,1.669454124104393186e-15
1.461722102719916438e+04,1.294807167996345358e-12,2.362758738739531608e-15
1.463714350985904457e+04,1.159395129510070519e-12,3.034735721662333913e-15
1.465706599251892840e+04,9.845810278680973300e-13,3.469696608682063275e-15
1.467698847517881040e+04,8.075223130431870500e-13,3.196607598337844167e-15
1.469691095783869241e+04,6.454403674155391992e-13,2.697415822326170477e-15
1.471683344049857442e+04,5.035857255453559106e-13,2.228264279642267023e-15
1.473675592315845643e+04,3.915481764598801673e-13,1.741491159742907482e-15
1.475667840581833843e+04,3.075021446139982560e-13,1.400688245524856384e-15
1.477660088847822044e+04,2.399261858691925095e-13,9.335849547000738725e-16
1.479652337113810245e+04,1.905069635506624852e-13,8.271180058758651458e-16
1.481644585379798446e+04,1.530702555387509359e-13,6.978694171743048168e-16
1.483636833645786646e+04,1.238784398311014485e-13,4.831449861095501071e-16
1.485629081911774847e+04,9.939077290833371860e-14,3.933522820892327362e-16
1.487621330177763230e+04,8.019558105766182774e-14,3.682030691714214638e-16
1.489613578443751248e+04,6.451491781687137364e-14,2.957216337976457223e-16
1.491605826709739631e+04,5.126968972234961700e-14,2.492337581287456820e-16
1.493598074975727832e+04,4.076044197007640175e-14,1.618693397342693454e-16
1.495590323241716032e+04,3.230741915106870699e-14,1.671514487374126395e-16
1.497582571507704233e+04,2.628105655899629613e-14,1.753234929317767247e-16
1.499574819773692434e+04,2.147015072017590679e-14,1.443146113492051064e-16
1.501567068039680635e+04,1.748673370286822665e-14,1.375045739326873970e-16
1.503559316305668835e+04,1.427624089249642929e-14,1.144941592388338842e-16
1.505551564571657218e+04,1.179667262256565529e-14,5.525580321354781942e-17
1.507543812837645237e+04,9.916369857496132485e-15,6.268725410020359752e-17
1.509536061103633619e+04,8.547380549103751817e-15,5.814038021364342692e-17
1.511528309369621638e+04,7.359527127171838619e-15,8.831760751914472749e-17
1.513520557635610021e+04,6.429097504408358995e-15,7.298216843674001505e-17
1.515512805901598040e+04,5.654515615115064266e-15,7.297384257229570383e-17
1.517505054167586422e+04,4.963311326301299764e-15,8.543567632672067068e-17
