Wavelength,Flux,FluxErr
1.337194363157468069e+04,5.196385794351922031e-17,2.065178722257676693e-17
1.338515678773801301e+04,6.994224433814615523e-17,2.154310345996988932e-17
1.339836994390134532e+04,9.250129290724844471e-17,3.126723493698071199e-17
1.341158310006467764e+04,1.385499720091967359e-16,4.172688445560527336e-17
1.342479625622800995e+04,1.968422394008220067e-16,2.583873597410506341e-17
1.343800941239134045e+04,1.958971934868081213e-16,4.010807542811222623e-17
1.345122256855467276e+04,2.626921667456531291e-16,4.434543350411071064e-17
1.346443572471800508e+04,2.912394742345605931e-16,4.588822198082713688e-17
1.347764888088133739e+04,3.721968453488576519e-16,5.239532593854837952e-17
1.349086203704466971e+04,4.079137552445004564e-16,6.006125765474363716e-17
1.350407519320800202e+04,4.741643937957501808e-16,5.375423600157425927e-17
1.351728834937133433e+04,5.653159716941850137e-16,7.656713655516045303e-17
1.353050150553466483e+04,6.966916929629186441e-16,8.125748781176506193e-17
1.354371466169799714e+04,7.225083127793326767e-16,5.338476596838067771e-17
1.355692781786132946e+04,8.720161853691360363e-16,5.261313828925369198e-17
1.357014097402465995e+04,9.157316599552904099e-16,7.103405206423443411e-17
1.358335413018799227e+04,1.163419337717429393e-15,8.165842891846913891e-17
1.359656728635132458e+04,1.294730730439024468e-15,6.415746458958430827e-17
1.360978044251465690e+04,1.551262529458529646e-15,8.444418244247130412e-17
1.362299359867798921e+04,1.724232894118393987e-15,9.231686727266393073e-17
1.363620675484132153e+04,1.992866302647968467e-15,5.763396782131214303e-17
1.364941991100465384e+04,2.235909702407446631e-15,9.857232223675240077e-17
1.366263306716798434e+04,2.562592802552734940e-15,7.960562718311139351e-17
1.367584622333131665e+04,2.913404726972318621e-15,5.674008628037989160e-17
1.368905937949464897e+04,3.118868538671474222e-15,8.118725195710662323e-17
1.370227253565798128e+04,3.495221242325207551e-15,1.162447702313109736e-16
1.371548569182131359e+04,3.816295388402881825e-15,1.069868697838529975e-16
1.372869884798464591e+04,4.488314971734553323e-15,9.536275449998205094e-17
1.374191200414797640e+04,5.004151904046219365e-15,9.245723966314036388e-17
1.375512516031130872e+04,5.670560529387174482e-15,1.137702701297028322e-16
1.376833831647464103e+04,5.851467649990301776e-15,7.766753425668915651e-17
1.378155147263797335e+04,6.250172022396082943e-15,8.711294511222337630e-17
1.379476462880130566e+04,6.843147341269332084e-15,1.378904912098743372e-16
1.380797778496463798e+04,7.680436145304722496e-15,9.640731971741858482e-17
1.382119094112797029e+04,8.600103853518740452e-15,1.203016901104464125e-16
1.383440409729130079e+04,9.434819568030427925e-15,9.785599031292082891e-17
1.384761725345463310e+04,1.021144665543299048e-14,9.866213275975401896e-17
1.386083040961796542e+04,1.101493433679522427e-14,9.316515219466283578e-17
1.387404356578129773e+04,1.210188800019173686e-14,1.232677721254628061e-16
1.388725672194463004e+04,1.356701737238416307e-14,8.905759911668483410e-17
1.390046987810796054e+04,1.495741646442557420e-14,1.253256424300541716e-16
1.391368303427129285e+04,1.590505402892339501e-14,1.144533719662491929e-16
1.392689619043462517e+04,1.751972866271954024e-14,1.383988327863388863e-16
1.394010934659795748e+04,1.957050576602033966e-14,7.536678479723039619e-17
1.395332250276128980e+04,2.253792205451738163e-14,1.615100827725485293e-16
1.396653565892462211e+04,2.521132391075894149e-14,9.428950611583189550e-17
1.397974881508795443e+04,2.778921432106030183e-14,1.306568958263571197e-16
1.399296197125128492e+04,3.153117440842130074e-14,9.113569754433776541e-17
1.400617512741461724e+04,3.667714686579389993e-14,1.672400720250406724e-16
1.401938828357794955e+04,4.578663772240247831e-14,1.606775304145808994e-16
1.403260143974128187e+04,5.704958377168784493e-14,2.418026892912963493e-16
1.404581459590461236e+04,6.739083000911614541e-14,2.699935546340175243e-16
1.405902775206794468e+04,7.855248146641570648e-14,2.833662646969847602e-16
1.407224090823127699e+04,9.742014911553126206e-14,2.814164804353563475e-16
1.408545406439460930e+04,1.310093149615235732e-13,5.103041884800083757e-16
1.409866722055794162e+04,1.825907712539406123e-13,6.787051011521856188e-16
1.411188037672127393e+04,2.332641569285010910e-13,7.238157174234019784e-16
1.412509353288460625e+04,2.763064830811462407e-13,6.003930869583850787e-16
1.413830668904793674e+04,3.310290589980145223e-13,8.325099785259579776e-16
1.415151984521126906e+04,4.418607815428228901e-13,1.467795909235562085e-15
1.416473300137460137e+04,6.370739979527784886e-13,2.426029461312566135e-15
1.417794615753793369e+04,8.933383592855648023e-13,2.928543612836728625e-15
1.419115931370126418e+04,1.129488422705371664e-12,2.227728204583916045e-15
1.420437246986459650e+04,1.285123793838479093e-12,1.666581721068054795e-15
1.421758562602792881e+04,1.425742424902697557e-12,1.864918309755675428e-15
1.423079878219126113e+04,1.644534106768363160e-12,2.489880101699938181e-15
1.424401193835459344e+04,1.909269434617939249e-12,2.885130008184429136e-15
1.425722509451792575e+04,2.121524821884549017e-12,2.226448366617986077e-15
1.427043825068125807e+04,2.230384821034383852e-12,1.027279532552120519e-15
1.428365140684459038e+04,2.255945036145078417e-12,1.092391014226529379e-15
1.429686456300792088e+04,2.298374912257608251e-12,6.475199947819940677e-16
1.431007771917125319e+04,2.332940920431067162e-12,6.701690859954520083e-16
1.432329087533458551e+04,2.357501565829729218e-12,7.925325733299077168e-16
1.433650403149791782e+04,2.377061021725755953e-12,6.915441670986747363e-16
1.434971718766125014e+04,2.389782353032621118e-12,8.683965165635226164e-16
1.436293034382458063e+04,2.425620280466930448e-12,6.678726577784743667e-16
1.437614349998791295e+04,2.420134462468768943e-12,4.133318992528392745e-16
1.438935665615124526e+04,2.431504083084911996e-12,9.634433550766253333e-16
1.440256981231457758e+04,2.420483248171456732e-12,9.502833083001807906e-16
1.441578296847790989e+04,2.446444187758605637e-12,7.172312304312395865e-16
1.442899612464124220e+04,2.500166119276197355e-12,8.545363098490807045e-16
1.444220928080457452e+04,2.484283192428583837e-12,1.070572006091612304e-15
1.445542243696790501e+04,2.557839316288962533e-12,4.907143270122695385e-16
1.446863559313123733e+04,2.592905635434329285e-12,6.824508680369618583e-16
1.448184874929456964e+04,2.619962289844961499e-12,6.204194796586375287e-16
1.449506190545790196e+04,2.645946788787383246e-12,9.301087952897683923e-16
1.450827506162123245e+04,2.622726065721699478e-12,1.459827114801639767e-15
1.452148821778456477e+04,2.651895917881795092e-12,6.348336186490601615e-16
1.453470137394789708e+04,2.693117664891995096e-12,7.604306092329212223e-16
1.454791453011122940e+04,2.718382077357784593e-12,1.149176724238691509e-15
1.456112768627456171e+04,2.778840317902689862e-12,7.879470700677103468e-16
1.457434084243789403e+04,2.808075087229162445e-12,6.330292198373853923e-16
1.458755399860122634e+04,2.806754910663791861e-12,6.832805390283253457e-16
1.460076715476455684e+04,2.818291895111248667e-12,7.725259477530196336e-16
1.461398031092788915e+04,2.837304152061237565e-12,6.953204451266656648e-16
1.462719346709122146e+04,2.855566275873459499e-12,8.286212111847707893e-16
1.464040662325455378e+04,2.852755308495576825e-12,8.687385507622106758e-16
1.465361977941788609e+04,2.868192044516500662e-12,9.368687402196374207e-16
1.466683293558121659e+04,2.869519018196898205e-12,7.146587606593850536e-16
1.468004609174454890e+04,2.865113921128595956e-12,7.758219377536108913e-16
1.469325924790788122e+04,2.851066581394908607e-12,7.369193776670304155e-16
1.470647240407121353e+04,2.856871833044372621e-12,5.633670706255989984e-16
1.471968556023454585e+04,2.868953313757982679e-12,8.099480920381407990e-16
1.473289871639787816e+04,2.866593892858007113e-12,6.061815649573814300e-16
1.474611187256121048e+04,2.858314821835218410e-12,7.201989469625886466e-16
1.475932502872454097e+04,2.899210723434322934e-12,8.376290942466565023e-16
1.477253818488787329e+04,2.938836950351098066e-12,7.641484468915438783e-16
1.478575134105120560e+04,2.973434111201880720e-12,7.001788541688184616e-16
1.479896449721453791e+04,2.989745901486321094e-12,7.570321771926191644e-16
1.481217765337786841e+04,2.990032006773693458e-12,1.193387891252845655e-15
1.482539080954120072e+04,2.979203982830331129e-12,9.099129632418131297e-16
1.483860396570453304e+04,2.947242926780427451e-12,9.167744645513005418e-16
1.485181712186786535e+04,2.975158803396969587e-12,7.541608460813228594e-16
1.486503027803119767e+04,3.007004033511589055e-12,7.049110255864174667e-16
1.487824343419452998e+04,2.995624382647461886e-12,6.788735964029141472e-16
1.489145659035786230e+04,2.918622903980061908e-12,1.858981552843448544e-15
1.490466974652119279e+04,2.968983183521253539e-12,1.058998881487564727e-15
1.491788290268452693e+04,2.999465019709216989e-12,6.620295316983011890e-16
1.493109605884785742e+04,2.983227823589337935e-12,9.855408354558891109e-16
1.494430921501118792e+04,2.978881265444354487e-12,8.260941833208891661e-16
1.495752237117452023e+04,2.960355401883173084e-12,6.135220781271883777e-16
1.497073552733785255e+04,2.950260762688683238e-12,1.335745305672539735e-15
1.498394868350118486e+04,2.928982787891957089e-12,8.910416498524850598e-16
1.499716183966451717e+04,2.911234386490528263e-12,9.673860661850767925e-16
1.501037499582784949e+04,2.888037126993040630e-12,7.261835905492243318e-16
1.502358815199118180e+04,2.864203188298601760e-12,9.555402745819657365e-16
1.503680130815451412e+04,2.839471929857242238e-12,9.924114374241484851e-16
1.505001446431784643e+04,2.825306529222936173e-12,6.459231244112671717e-16
1.506322762048117875e+04,2.829653315882795159e-12,5.332044371844797537e-16
1.507644077664450924e+04,2.844276014144420713e-12,1.055054567909878935e-15
1.508965393280784156e+04,2.846889789676484330e-12,9.118525892196344792e-16
1.510286708897117387e+04,2.856659831580943503e-12,6.505291655854203776e-16
1.511608024513450437e+04,2.833307134226376316e-12,7.912621850178788067e-16
1.512929340129783668e+04,2.801620886550164859e-12,1.915310757760202434e-15
1.514250655746116900e+04,2.833446761038209044e-12,7.301642344757471450e-16
1.515571971362450131e+04,2.808016154354126661e-12,6.714030984041385873e-16
1.516893286978783362e+04,2.813479059529089254e-12,6.844168988182768507e-16
1.518214602595116594e+04,2.839128961052881493e-12,7.150647442401398511e-16
1.519535918211449825e+04,2.808693133942526825e-12,5.625999789942879517e-16
1.520857233827783057e+04,2.797669580542685950e-12,7.752547707039529013e-16
1.522178549444116106e+04,2.779026478525477404e-12,7.182181090419324819e-16
1.523499865060449338e+04,2.765140106277065861e-12,7.236474935779761518e-16
1.524821180676782569e+04,2.750586370636278778e-12,7.030937862908898761e-16
1.526142496293115801e+04,2.739543343106221615e-12,7.372756938003190782e-16
1.527463811909448850e+04,2.730731550841742004e-12,6.955496897604932389e-16
1.528785127525782082e+04,2.690946117245766341e-12,5.072218229887995690e-16
1.530106443142115313e+04,2.686460932489603029e-12,6.636819014857755574e-16
1.531427758758448545e+04,2.659413662723016020e-12,6.802325903235335889e-16
1.532749074374781776e+04,2.618413747366542577e-12,8.932770498899136036e-16
1.534070389991115007e+04,2.629728356188581036e-12,6.910268432347438499e-16
1.535391705607448239e+04,2.656199065906773438e-12,5.459728631245237767e-16
1.536713021223781470e+04,2.610804309936433802e-12,7.105337199701042932e-16
1.538034336840114520e+04,2.557039243090477291e-12,1.005688638657817094e-15
1.539355652456447751e+04,2.615144290252159704e-12,1.461610267534696914e-15
1.540676968072780983e+04,2.659043607059069284e-12,7.347965773043437142e-16
1.541998283689114032e+04,2.655065914272358033e-12,6.161229801125888877e-16
1.543319599305447264e+04,2.648072777098119017e-12,6.210549833615850991e-16
1.544640914921780495e+04,2.635915302178771169e-12,6.273194671361605899e-16
1.545962230538113727e+04,2.618857386669556827e-12,5.927535612386528942e-16
1.547283546154446958e+04,2.613770187005442713e-12,7.264502225429310533e-16
1.548604861770780190e+04,2.586544844591426226e-12,7.136331311558601499e-16
1.549926177387113421e+04,2.588849453895778252e-12,8.922212319959576260e-16
1.551247493003446652e+04,2.545316563020367224e-12,5.283793494360285849e-16
1.552568808619779884e+04,2.491343474275402053e-12,1.148362215664179056e-15
1.553890124236113115e+04,2.499113190289922346e-12,8.032196768652382635e-16
1.555211439852446165e+04,2.487316934533701846e-12,6.330960203532853408e-16
1.556532755468779214e+04,2.469395072222154578e-12,7.239552195005185250e-16
1.557854071085112446e+04,2.423698668650210939e-12,6.721964274641682706e-16
1.559175386701445677e+04,2.401652665976711496e-12,8.019887437693256833e-16
1.560496702317778909e+04,2.416235278714185455e-12,7.889736135374340527e-16
1.561818017934112140e+04,2.383342247017194291e-12,8.659575535927799433e-16
1.563139333550445372e+04,2.382822114213422796e-12,9.242994473616891676e-16
1.564460649166778603e+04,2.387704349023851450e-12,5.904997869439389190e-16
1.565781964783111835e+04,2.396494760777596649e-12,7.344393984334497106e-16
1.567103280399444884e+04,2.369134638210880023e-12,6.346527753465703222e-16
1.568424596015778116e+04,2.343972980559726323e-12,6.395992583545846695e-16
1.569745911632111529e+04,2.291670972975391668e-12,7.909747006637090634e-16
1.571067227248444578e+04,2.282567163639707476e-12,9.481904607056485507e-16
1.572388542864777810e+04,2.281359016910883788e-12,8.070433648722788644e-16
1.573709858481110859e+04,2.265437567411662662e-12,9.000607833395642822e-16
1.575031174097444091e+04,2.214348472117714277e-12,9.244619768152617104e-16
