Wavelength,Flux,FluxErr
1.192768586811506975e+04,5.073748839699293590e-14,3.330966119373576281e-16
1.194760835077495176e+04,6.014157635692499181e-14,2.950500049816682838e-16
1.196753083343483377e+04,7.344046755359887815e-14,4.377805797755274405e-16
1.198745331609471577e+04,9.799684183093179733e-14,6.294427371958550020e-16
1.200737579875459778e+04,1.384832066084306927e-13,8.081237750496031947e-16
1.202729828141448161e+04,1.909824155952667759e-13,1.026075291825739048e-15
1.204722076407436180e+04,2.341678831457358898e-13,1.245579091777985377e-15
1.206714324673424562e+04,2.766506162212818985e-13,1.482434037762413371e-15
1.208706572939412581e+04,3.525100000333898234e-13,1.936812384852691640e-15
1.210698821205400964e+04,5.004977738578163136e-13,2.846804402157656088e-15
1.212691069471389164e+04,7.240854433873881246e-13,3.641810161029698441e-15
1.214683317737377365e+04,9.700358388553877331e-13,3.318924634368113199e-15
1.216675566003365566e+04,1.142867039748049170e-12,3.048247063704529385e-15
1.218667814269353767e+04,1.270773695019739969e-12,2.927008852874218275e-15
1.220660062535341967e+04,1.424830491973829342e-12,3.224145985800311293e-15
1.222652310801330168e+04,1.663489082196892477e-12,3.104345389691256100e-15
1.224644559067318369e+04,1.885835073909838914e-12,3.015917729602525650e-15
1.226636807333306569e+04,2.016961086240659262e-12,1.764527117698599505e-15
1.228629055599294952e+04,2.071972998193961215e-12,1.275278464684292903e-15
1.230621303865282971e+04,2.106724397657482110e-12,1.238157750024583073e-15
1.232613552131271354e+04,2.135533093326678061e-12,1.158361435224232224e-15
1.234605800397259372e+04,2.133450023990049203e-12,9.720897605984518019e-16
1.236598048663247755e+04,2.094520554473168347e-12,1.754554411309761220e-15
1.238590296929235956e+04,2.162896939741576108e-12,1.050907832863182832e-15
1.240582545195224156e+04,2.173003078381327631e-12,9.291675809416130826e-16
1.242574793461212357e+04,2.199515842329773425e-12,8.610078376246353463e-16
1.244567041727200558e+04,2.189072581796519359e-12,1.102855361194598284e-15
1.246559289993188941e+04,2.195950069313460234e-12,1.048958966651037733e-15
1.248551538259176959e+04,2.196797508901533173e-12,1.045449598251931695e-15
1.250543786525165342e+04,2.235118239154199731e-12,9.012450046892374302e-16
1.252536034791153361e+04,2.286601185757888412e-12,8.812934027151779316e-16
1.254528283057141743e+04,2.294201683027230686e-12,1.432561990590193768e-15
1.256520531323129944e+04,2.296888132725003439e-12,1.084780579928342579e-15
1.258512779589118145e+04,2.306519901915953149e-12,6.112653052787713430e-16
1.260505027855106346e+04,2.331088835072175679e-12,7.863894425868507720e-16
1.262497276121094546e+04,2.331320047804966622e-12,8.444249335855504291e-16
1.264489524387082929e+04,2.292359617084781343e-12,1.143588716424033509e-15
1.266481772653070948e+04,2.349066358559331077e-12,9.299974421914072698e-16
1.268474020919059330e+04,2.360532983214857023e-12,8.062798997646543701e-16
1.270466269185047349e+04,2.364894960998971394e-12,9.940548082331306166e-16
1.272458517451035732e+04,2.357373804236178369e-12,1.083160403733531503e-15
1.274450765717023751e+04,2.393494507989232570e-12,1.022269068044819008e-15
1.276443013983012133e+04,2.382772281755384189e-12,1.030657763466570241e-15
1.278435262249000152e+04,2.379133441817635761e-12,8.986325301504769023e-16
1.280427510514988535e+04,2.386243552439794832e-12,5.690030203945429886e-16
1.282419758780976736e+04,2.375857635456707362e-12,9.568052143487471379e-16
1.284412007046964936e+04,2.367237253248248546e-12,1.031385090262155911e-15
1.286404255312953137e+04,2.374604106584907322e-12,1.076907373036509291e-15
1.288396503578941338e+04,2.356925931584579219e-12,7.733036196818050673e-16
1.290388751844929720e+04,2.339031880306373982e-12,7.388051185755291718e-16
1.292381000110917739e+04,2.331990507185637937e-12,6.783001937870964426e-16
1.294373248376906122e+04,2.319771647310127457e-12,9.312289832416715746e-16
1.296365496642894141e+04,2.336279124075463013e-12,9.613687398443732349e-16
1.298357744908882523e+04,2.285333681625935637e-12,8.552386566249315018e-16
1.300349993174870542e+04,2.284745519212042544e-12,7.312677612335057637e-16
1.302342241440858925e+04,2.310036295395373917e-12,8.018265434640629546e-16
1.304334489706847125e+04,2.326382198269200184e-12,5.062828662080802190e-16
1.306326737972835326e+04,2.342913448052582308e-12,8.207933897378240036e-16
1.308318986238823527e+04,2.336237659064615128e-12,9.980044864148267933e-16
1.310311234504811728e+04,2.317784925484980538e-12,7.402537848489451247e-16
1.312303482770800110e+04,2.302062084518631835e-12,1.166596714328482415e-15
1.314295731036788129e+04,2.297421523990422216e-12,9.344313650357993274e-16
1.316287979302776512e+04,2.315031185388481698e-12,1.209284313735330354e-15
1.318280227568764712e+04,2.310578203647978589e-12,1.020631041139546842e-15
1.320272475834752913e+04,2.272971662961989165e-12,8.120500938667893133e-16
1.322264724100741114e+04,2.280993162002404984e-12,1.141150612229248050e-15
1.324256972366729315e+04,2.287795649584898230e-12,8.772290348781310815e-16
1.326249220632717515e+04,2.286012430097918615e-12,7.906765901087091586e-16
1.328241468898705716e+04,2.264470899643741689e-12,1.069242118068565393e-15
1.330233717164694099e+04,2.272539792420621407e-12,1.337916667409711382e-15
1.332225965430682118e+04,2.256950168408676004e-12,7.448379956098078761e-16
1.334218213696670500e+04,2.242659227995973069e-12,7.617016310999464621e-16
1.336210461962658519e+04,2.226790294668071539e-12,9.558559294307682837e-16
1.338202710228646902e+04,2.206739012980931392e-12,1.412332841964246197e-15
1.340194958494635102e+04,2.167105626301461198e-12,1.481013620067292516e-15
1.342187206760623303e+04,2.161413403982443409e-12,1.059290519406936942e-15
1.344179455026611504e+04,2.128571545959957570e-12,7.339354845136138804e-16
1.346171703292599705e+04,2.124910425131838295e-12,8.739261748589074759e-16
1.348163951558587905e+04,2.124928821266791767e-12,9.199804192153576621e-16
1.350156199824576106e+04,2.120314620933340319e-12,1.012513531876027111e-15
1.352148448090564307e+04,2.116945228096463636e-12,7.559306782857809113e-16
1.354140696356552507e+04,2.112263696482799201e-12,8.213658406307526031e-16
1.356132944622540708e+04,2.065234420280504663e-12,1.477280316128467653e-15
1.358125192888528909e+04,2.080524607111609317e-12,9.398006918081765595e-16
1.360117441154517292e+04,2.068303887518622271e-12,1.516269918512570123e-15
1.362109689420505310e+04,2.087484376916329091e-12,1.102540558645700423e-15
1.364101937686493693e+04,2.057840028507623904e-12,1.018540625223234291e-15
1.366094185952481894e+04,2.081949309789347749e-12,7.655431354485898349e-16
1.368086434218470094e+04,2.079705621876947820e-12,8.262375301012699619e-16
1.370078682484458295e+04,2.089646121072598021e-12,7.021577311187899184e-16
1.372070930750446496e+04,2.061918074373502635e-12,9.942446132350017402e-16
1.374063179016434879e+04,2.066187436100852508e-12,4.298631871776251039e-16
1.376055427282422897e+04,2.062738724603769404e-12,7.490171052507716041e-16
1.378047675548411280e+04,2.045701692565527876e-12,9.202966002923909062e-16
1.380039923814399299e+04,2.030911362345555379e-12,7.166227577439568063e-16
1.382032172080387681e+04,2.016933180981745477e-12,7.455315449202204509e-16
1.384024420346375882e+04,2.006661658972572293e-12,6.605149721289907789e-16
1.386016668612364083e+04,1.969957946624253551e-12,7.656388125141435558e-16
1.388008916878352284e+04,1.943071961142898367e-12,1.005736274846329037e-15
1.390001165144340484e+04,1.961330124083886320e-12,7.869384617109969071e-16
1.391993413410328867e+04,1.946874987152852547e-12,7.181371064103028453e-16
1.393985661676316886e+04,1.907708988892052052e-12,6.837453319174526183e-16
1.395977909942305268e+04,1.919404273641400802e-12,6.856044331820836795e-16
1.397970158208293287e+04,1.948831841389218394e-12,8.467446728422723265e-16
1.399962406474281670e+04,1.965327141331058362e-12,6.112742692779204020e-16
1.401954654740269689e+04,1.929500808061199262e-12,6.651194739506881317e-16
1.403946903006258071e+04,1.915401704150830552e-12,8.526577062609165073e-16
1.405939151272246090e+04,1.903317314368939142e-12,7.768425495661531773e-16
1.407931399538234473e+04,1.876237832604088453e-12,7.839635905759030398e-16
1.409923647804222674e+04,1.861114308784531677e-12,6.667217102637259653e-16
1.411915896070210874e+04,1.850186104994915978e-12,9.190198773126697084e-16
1.413908144336199075e+04,1.827428177928833469e-12,8.265940324360528159e-16
1.415900392602187276e+04,1.803011429400757190e-12,7.481870186964953904e-16
1.417892640868175658e+04,1.777261264327383906e-12,5.149678905710500484e-16
1.419884889134163677e+04,1.760200223697596695e-12,6.138376728232658868e-16
1.421877137400152060e+04,1.735677968039743235e-12,5.865886400655417003e-16
1.423869385666140079e+04,1.711817060633460072e-12,6.219192436414122064e-16
1.425861633932128461e+04,1.686611927492071144e-12,7.288254801127512754e-16
1.427853882198116480e+04,1.667520947148866039e-12,7.581838990410100129e-16
1.429846130464104863e+04,1.660564567146160160e-12,6.184340793223821179e-16
1.431838378730092882e+04,1.646092002138259713e-12,5.524297132262732114e-16
1.433830626996081264e+04,1.645344806001717864e-12,9.920233523199841928e-16
1.435822875262069465e+04,1.633981812718156272e-12,7.287880998419154325e-16
1.437815123528057666e+04,1.621272030083003634e-12,7.404169372796920228e-16
1.439807371794046048e+04,1.612041547839019277e-12,6.865813490550699259e-16
1.441799620060034067e+04,1.592336082726361911e-12,5.985118580116637596e-16
1.443791868326022450e+04,1.560098358409403908e-12,7.033063192401998979e-16
1.445784116592010650e+04,1.565950669763107216e-12,6.937324675277051730e-16
1.447776364857998851e+04,1.557780541759758173e-12,5.959043530028604539e-16
1.449768613123987052e+04,1.543435821766548712e-12,6.702678668028975539e-16
1.451760861389975253e+04,1.497120964477575725e-12,7.647032067542737090e-16
1.453753109655963453e+04,1.480392312291525078e-12,1.205070634904179590e-15
1.455745357921951654e+04,1.475199907680945276e-12,7.263612962855261506e-16
1.457737606187939855e+04,1.462174227961997897e-12,8.028632278042444275e-16
1.459729854453928056e+04,1.422565769471692312e-12,1.348256734276597134e-15
1.461722102719916438e+04,1.348767191692856457e-12,1.254476282442703556e-15
1.463714350985904457e+04,1.218114320867463638e-12,1.146511520284138320e-15
1.465706599251892840e+04,1.041866734181214883e-12,1.133713699854924496e-15
1.467698847517881040e+04,8.581145903254038965e-13,9.573666447383534025e-16
1.469691095783869241e+04,6.856530957991099285e-13,8.348903345629801135e-16
1.471683344049857442e+04,5.346326727260134938e-13,6.869456102042577344e-16
1.473675592315845643e+04,4.145464615837115915e-13,5.137477870160475608e-16
1.475667840581833843e+04,3.257598402156402361e-13,4.265758098892203977e-16
1.477660088847822044e+04,2.541175851359835460e-13,4.354820440307862681e-16
1.479652337113810245e+04,2.014630827617233023e-13,3.049800584169797725e-16
1.481644585379798446e+04,1.616122938048501590e-13,2.901725815412283837e-16
1.483636833645786646e+04,1.305309520418185192e-13,3.080134331399786175e-16
1.485629081911774847e+04,1.045755595832613424e-13,2.346822019010650463e-16
1.487621330177763230e+04,8.458084477607009094e-14,2.207453708133093889e-16
1.489613578443751248e+04,6.811705848963608467e-14,2.165171011538245143e-16
1.491605826709739631e+04,5.406646260087079799e-14,1.640082216114561422e-16
1.493598074975727832e+04,4.312521822328760721e-14,1.111677317878712538e-16
1.495590323241716032e+04,3.429394847911016542e-14,1.131551890556398705e-16
1.497582571507704233e+04,2.771122535377369097e-14,1.128108969935919637e-16
1.499574819773692434e+04,2.270388654431737701e-14,9.257287239526722110e-17
1.501567068039680635e+04,1.859898506823715996e-14,9.091756692700126763e-17
1.503559316305668835e+04,1.512697902157520584e-14,8.779862307799235131e-17
1.505551564571657218e+04,1.253812036385491735e-14,7.618774890072074822e-17
1.507543812837645237e+04,1.044744378795681882e-14,6.683840051479137073e-17
1.509536061103633619e+04,9.051251871187011786e-15,8.793512263574302648e-17
1.511528309369621638e+04,7.797333128230552904e-15,1.017630698185834048e-16
1.513520557635610021e+04,6.800281730056090985e-15,7.373111370604152836e-17
1.515512805901598040e+04,5.983539556355691662e-15,6.052185173722952987e-17
1.517505054167586422e+04,5.213484527186457015e-15,6.536405981025394271e-17
